# dimensionless total [l(l+1)/2pi] C_l's
# for l=2 to 2500, i.e. number of multipoles equal to 2499
#
# -> if you prefer output in CAMB/HealPix/LensPix units/order, set 'format' to 'camb' in input file
# -> if you don't want to see such a header, set 'headers' to 'no' in input file
# -> for CMB lensing (phi), these are C_l^phi-phi for the lensing potential.
#    Remember the conversion factors:
#    C_l^dd (deflection) = l(l+1) C_l^phi-phi
#    C_l^gg (shear/convergence) = 1/4 (l(l+1))^2 C_l^phi-phi
#
# 1:l     2:TT                     3:EE                     4:TE                     5:BB                     6:phiphi                 7:TPhi                   8:Ephi               
    2       1.377313891706e-10       4.798768964777e-15       3.799842649750e-13       0.000000000000e+00       8.063702895097e-09       4.393251527077e-10      -1.982107425880e-12 
    3       1.299588134839e-10       6.658995799786e-15       4.385968373788e-13       0.000000000000e+00       4.976165759126e-09       3.119227920282e-10      -1.568837651124e-12 
    4       1.225472904124e-10       6.283194464295e-15       4.204207580676e-13       0.000000000000e+00       3.456457918177e-09       2.362661134807e-10      -1.095059372878e-12 
    5       1.168990302630e-10       4.598030177467e-15       3.665976034650e-13       0.000000000000e+00       2.575281969067e-09       1.865660233780e-10      -6.747087781950e-13 
    6       1.129171509316e-10       2.781485645468e-15       3.015235659324e-13       0.000000000000e+00       2.008707329912e-09       1.517569494111e-10      -3.429467515199e-13 
    7       1.102886485068e-10       1.519121052732e-15       2.400174097087e-13       0.000000000000e+00       1.619242178756e-09       1.262596926617e-10      -1.089373028515e-13 
    8       1.086162205945e-10       8.942016147302e-16       1.894730113648e-13       0.000000000000e+00       1.337532628029e-09       1.068925962455e-10       3.361777385634e-14 
    9       1.077053060828e-10       6.670401953279e-16       1.526228003335e-13       0.000000000000e+00       1.125830258159e-09       9.177354958950e-11       1.002270766156e-13 
   10       1.073672126886e-10       5.799039723493e-16       1.292751341310e-13       0.000000000000e+00       9.620798905097e-10       7.976208672743e-11       1.111912520260e-13 
   11       1.074401209478e-10       5.037216806402e-16       1.175450001079e-13       0.000000000000e+00       8.101064477431e-10       7.035687659896e-11       8.784362973931e-14 
   12       1.078890039865e-10       4.263199778599e-16       1.146347241756e-13       0.000000000000e+00       7.075403278265e-10       6.231337738627e-11       4.926910143242e-14 
   13       1.085728114010e-10       3.759094736810e-16       1.175561491644e-13       0.000000000000e+00       6.233861795169e-10       5.559195332276e-11       9.970327246416e-15 
   14       1.094290974599e-10       3.651358795535e-16       1.238274793850e-13       0.000000000000e+00       5.533937297201e-10       4.982085680971e-11      -2.076895962707e-14 
   15       1.104757339279e-10       3.826104965481e-16       1.316427796017e-13       0.000000000000e+00       4.945044899440e-10       4.496489376071e-11      -3.857149882560e-14 
   16       1.116867436893e-10       4.118631221289e-16       1.397275101847e-13       0.000000000000e+00       4.444548059823e-10       4.083563817590e-11      -4.355130583354e-14 
   17       1.129819585771e-10       4.476034342529e-16       1.475618447987e-13       0.000000000000e+00       4.015355573982e-10       3.723231514646e-11      -3.870636478217e-14 
   18       1.143819259136e-10       4.966839579338e-16       1.550998315524e-13       0.000000000000e+00       3.642943522650e-10       3.402361868925e-11      -2.844416736392e-14 
   19       1.158949042355e-10       5.660474695735e-16       1.625459955918e-13       0.000000000000e+00       3.321384804299e-10       3.118947959747e-11      -1.649412766068e-14 
   20       1.174610556741e-10       6.610339875998e-16       1.701889658012e-13       0.000000000000e+00       3.038257959086e-10       2.867561956492e-11      -6.759592836352e-15 
   21       1.190920971087e-10       7.802415381490e-16       1.782564072097e-13       0.000000000000e+00       2.789079382836e-10       2.647180755427e-11      -8.919035579881e-16 
   22       1.207908142227e-10       9.194528993323e-16       1.869069734927e-13       0.000000000000e+00       2.567858846162e-10       2.454084581933e-11       4.945454579280e-16 
   23       1.225492775711e-10       1.078011591143e-15       1.960264128722e-13       0.000000000000e+00       2.371611595582e-10       2.283166959802e-11      -1.841496180903e-15 
   24       1.243375823154e-10       1.256079317683e-15       2.053315440025e-13       0.000000000000e+00       2.195821736370e-10       2.126896983033e-11      -6.342847030679e-15 
   25       1.261642272383e-10       1.453481280208e-15       2.144322819743e-13       0.000000000000e+00       2.038094634145e-10       1.983871341694e-11      -1.138352091365e-14 
   26       1.280359475179e-10       1.669883226363e-15       2.228820569379e-13       0.000000000000e+00       1.895339121525e-10       1.853427965840e-11      -1.527679851333e-14 
   27       1.299604649058e-10       1.905762414954e-15       2.304482286834e-13       0.000000000000e+00       1.766805826068e-10       1.735502846983e-11      -1.746344912486e-14 
   28       1.319283748161e-10       2.161820730211e-15       2.369474208024e-13       0.000000000000e+00       1.650923493572e-10       1.628854974179e-11      -1.774600882593e-14 
   29       1.339163014928e-10       2.438943781033e-15       2.422166822890e-13       0.000000000000e+00       1.544862395408e-10       1.531107995827e-11      -1.610131121918e-14 
   30       1.359291195062e-10       2.738940560325e-15       2.462605180446e-13       0.000000000000e+00       1.448033129754e-10       1.441829503050e-11      -1.316017581482e-14 
   31       1.379709257662e-10       3.064130181508e-15       2.491668005438e-13       0.000000000000e+00       1.359715332398e-10       1.360434807264e-11      -9.951209933051e-15 
   32       1.400376911458e-10       3.416805361552e-15       2.510493902233e-13       0.000000000000e+00       1.278508979805e-10       1.285674398770e-11      -7.548993983297e-15 
   33       1.421352911191e-10       3.797921419471e-15       2.519640414093e-13       0.000000000000e+00       1.203967754234e-10       1.216987144894e-11      -6.185563238562e-15 
   34       1.442659409993e-10       4.207916370623e-15       2.519649261995e-13       0.000000000000e+00       1.135426131181e-10       1.153508864609e-11      -5.816580907767e-15 
   35       1.464258976813e-10       4.647149058417e-15       2.510928193182e-13       0.000000000000e+00       1.071857933276e-10       1.094053886099e-11      -6.324038027363e-15 
   36       1.486176351899e-10       5.116289731747e-15       2.492541546839e-13       0.000000000000e+00       1.013096077804e-10       1.038507106962e-11      -7.434034617491e-15 
   37       1.508403557214e-10       5.616049918117e-15       2.462986620505e-13       0.000000000000e+00       9.589552670197e-11       9.868396671659e-12      -8.760399768640e-15 
   38       1.530857560288e-10       6.147072569398e-15       2.420488323997e-13       0.000000000000e+00       9.088633793696e-11       9.387010823532e-12      -9.817785914789e-15 
   39       1.553427805811e-10       6.709958244819e-15       2.363318935119e-13       0.000000000000e+00       8.620674508988e-11       8.935794364840e-12      -1.015364190777e-14 
   40       1.576157530654e-10       7.305366599027e-15       2.290937505542e-13       0.000000000000e+00       8.184228858551e-11       8.514222780070e-12      -9.814821239650e-15 
   41       1.599111043633e-10       7.933941103514e-15       2.203205268701e-13       0.000000000000e+00       7.778136298335e-11       8.121760880127e-12      -9.028687654355e-15 
   42       1.622319994429e-10       8.596278230085e-15       2.100084990074e-13       0.000000000000e+00       7.399166963270e-11       7.755977595131e-12      -8.081797894499e-15 
   43       1.645792310198e-10       9.292927702126e-15       1.981638364283e-13       0.000000000000e+00       7.043213031989e-11       7.413512203443e-12      -7.259628202523e-15 
   44       1.669551118371e-10       1.002439964514e-14       1.848003367912e-13       0.000000000000e+00       6.709718459451e-11       7.093717939937e-12      -6.634277100744e-15 
   45       1.693601710629e-10       1.079115518089e-14       1.699419713222e-13       0.000000000000e+00       6.398337492465e-11       6.795880609949e-12      -6.216984453913e-15 
   46       1.717917134671e-10       1.159360130742e-14       1.536241850127e-13       0.000000000000e+00       6.107604898602e-11       6.518100423673e-12      -6.016211553535e-15 
   47       1.742435291359e-10       1.243208842633e-14       1.358944277376e-13       0.000000000000e+00       5.834848723982e-11       6.257201113769e-12      -6.037391245037e-15 
   48       1.767087778999e-10       1.330692078687e-14       1.167905642703e-13       0.000000000000e+00       5.577011419633e-11       6.009636437114e-12      -6.274039407806e-15 
   49       1.791902814245e-10       1.421839706955e-14       9.626766838556e-14       0.000000000000e+00       5.333590494551e-11       5.774723906200e-12      -6.678709591901e-15 
   50       1.816926335920e-10       1.516677699409e-14       7.425150543234e-14       0.000000000000e+00       5.104376904807e-11       5.552166460872e-12      -7.183421539520e-15 
   51       1.842191539399e-10       1.615226763218e-14       5.065826893499e-14       0.000000000000e+00       4.888579168196e-11       5.341095659742e-12      -7.706911362113e-15 
   52       1.867717593509e-10       1.717502159374e-14       2.539398308429e-14       0.000000000000e+00       4.684782467355e-11       5.140031684736e-12      -8.153940920252e-15 
   53       1.893514042085e-10       1.823512317590e-14      -1.626816251501e-15       0.000000000000e+00       4.491391991497e-11       4.947393606955e-12      -8.439960696903e-15 
   54       1.919598290925e-10       1.933254680350e-14      -3.041802354488e-14       0.000000000000e+00       4.308190940638e-11       4.763276291730e-12      -8.574133542299e-15 
   55       1.945980381227e-10       2.046718474079e-14      -6.096984805415e-14       0.000000000000e+00       4.135111873606e-11       4.588060705662e-12      -8.596456239805e-15 
   56       1.972656677303e-10       2.163885592696e-14      -9.326646696232e-14       0.000000000000e+00       3.971767407178e-11       4.421887107195e-12      -8.554638751167e-15 
   57       1.999608821838e-10       2.284730365770e-14      -1.272858145625e-13       0.000000000000e+00       3.817429622703e-11       4.264638122925e-12      -8.504476635934e-15 
   58       2.026802691139e-10       2.409219326678e-14      -1.629993714430e-13       0.000000000000e+00       3.671009472728e-11       4.115921823907e-12      -8.510223470883e-15 
   59       2.054203112150e-10       2.537316717618e-14      -2.003802386199e-13       0.000000000000e+00       3.531356084349e-11       3.975190113957e-12      -8.627787869075e-15 
   60       2.081824377355e-10       2.669003024119e-14      -2.394300283271e-13       0.000000000000e+00       3.398282607686e-11       3.842164436720e-12      -8.848921962464e-15 
   61       2.109689635347e-10       2.804260342691e-14      -2.801578565817e-13       0.000000000000e+00       3.271742627493e-11       3.716479195936e-12      -9.144706987345e-15 
   62       2.137815660497e-10       2.943066985805e-14      -3.225726759169e-13       0.000000000000e+00       3.151521662717e-11       3.597543050954e-12      -9.481383564113e-15 
   63       2.166212342504e-10       3.085397444518e-14      -3.666833454133e-13       0.000000000000e+00       3.037227417085e-11       3.484526579886e-12      -9.820141899725e-15 
   64       2.194882175948e-10       3.231222351092e-14      -4.124987007296e-13       0.000000000000e+00       2.928280029679e-11       3.376349942758e-12      -1.011691199017e-14 
   65       2.223824629342e-10       3.380499544612e-14      -4.600224020309e-13       0.000000000000e+00       2.824071787030e-11       3.271964470886e-12      -1.033206688549e-14 
   66       2.253051474319e-10       3.533145152540e-14      -5.092360522712e-13       0.000000000000e+00       2.724507471831e-11       3.171294459742e-12      -1.046239221847e-14 
   67       2.282573800020e-10       3.689056299824e-14      -5.601126182780e-13       0.000000000000e+00       2.629561360875e-11       3.074473367606e-12      -1.051553224150e-14 
   68       2.312397053080e-10       3.848119184601e-14      -6.126212627574e-13       0.000000000000e+00       2.539112945693e-11       2.981563450892e-12      -1.050074042516e-14 
   69       2.342520663666e-10       4.010208791958e-14      -6.667272682516e-13       0.000000000000e+00       2.452941923321e-11       2.892551649019e-12      -1.042894694911e-14 
   70       2.372937671520e-10       4.175188607685e-14      -7.223919610975e-13       0.000000000000e+00       2.370723187060e-11       2.807345469278e-12      -1.031282619302e-14 
   71       2.403634351999e-10       4.342910332033e-14      -7.795726353846e-13       0.000000000000e+00       2.292021817237e-11       2.725768871694e-12      -1.016686422754e-14 
   72       2.434597048585e-10       4.513228154252e-14      -8.382274441739e-13       0.000000000000e+00       2.216404800005e-11       2.647616767783e-12      -1.000483853779e-14 
   73       2.465835019792e-10       4.686045384413e-14      -8.983313290737e-13       0.000000000000e+00       2.143812141769e-11       2.572839772366e-12      -9.831547152797e-15 
   74       2.497361322340e-10       4.861276296948e-14      -9.598630251617e-13       0.000000000000e+00       2.074248269339e-11       2.501387643281e-12      -9.649606497865e-15 
   75       2.529185787379e-10       5.038832408378e-14      -1.022800401379e-12       0.000000000000e+00       2.007669309329e-11       2.433151079992e-12      -9.461906760693e-15 
   76       2.561314811066e-10       5.218622523508e-14      -1.087120497896e-12       0.000000000000e+00       1.943980743934e-11       2.367958946677e-12      -9.271620300839e-15 
   77       2.593751145134e-10       5.400552781620e-14      -1.152799563478e-12       0.000000000000e+00       1.883035066722e-11       2.305575495308e-12      -9.082210059197e-15 
   78       2.626493687465e-10       5.584526702668e-14      -1.219813092853e-12       0.000000000000e+00       1.824629438419e-11       2.245697588737e-12      -8.897437967485e-15 
   79       2.659537272656e-10       5.770445233476e-14      -1.288135864074e-12       0.000000000000e+00       1.768503342692e-11       2.187951923779e-12      -8.721373357717e-15 
   80       2.692876222288e-10       5.958199873896e-14      -1.357739020972e-12       0.000000000000e+00       1.714403204568e-11       2.131986535743e-12      -8.557602598353e-15 
   81       2.726516166498e-10       6.147650578913e-14      -1.428580654781e-12       0.000000000000e+00       1.662294326633e-11       2.077769722166e-12      -8.406681429097e-15 
   82       2.760463902703e-10       6.338644085248e-14      -1.500613647415e-12       0.000000000000e+00       1.612181651872e-11       2.025338205723e-12      -8.268253463276e-15 
   83       2.794723680613e-10       6.531020409843e-14      -1.573788464020e-12       0.000000000000e+00       1.564044983003e-11       1.974706448590e-12      -8.141803379499e-15 
   84       2.829297062426e-10       6.724612767905e-14      -1.648053135617e-12       0.000000000000e+00       1.517837878311e-11       1.925865621480e-12      -8.026650539033e-15 
   85       2.864182783019e-10       6.919247490956e-14      -1.723353241750e-12       0.000000000000e+00       1.473486547484e-11       1.878782572677e-12      -7.921942603188e-15 
   86       2.899376610147e-10       7.114743944873e-14      -1.799631893132e-12       0.000000000000e+00       1.430888747444e-11       1.833398797070e-12      -7.826649150695e-15 
   87       2.934871204638e-10       7.310914447941e-14      -1.876829714284e-12       0.000000000000e+00       1.389912678187e-11       1.789629405196e-12      -7.739555295090e-15 
   88       2.970655980585e-10       7.507564188894e-14      -1.954884826191e-12       0.000000000000e+00       1.350395878612e-11       1.747362092269e-12      -7.659255302094e-15 
   89       3.006720748833e-10       7.704499056099e-14      -2.033735462286e-12       0.000000000000e+00       1.312183870688e-11       1.706485585191e-12      -7.584361182049e-15 
   90       3.043067607177e-10       7.901550711248e-14      -2.113328324575e-12       0.000000000000e+00       1.275255446027e-11       1.666982344907e-12      -7.514179879664e-15 
   91       3.079700666446e-10       8.098555316216e-14      -2.193611512438e-12       0.000000000000e+00       1.239615089807e-11       1.628848574226e-12      -7.448131048107e-15 
   92       3.116622351292e-10       8.295346008119e-14      -2.274532027764e-12       0.000000000000e+00       1.205254480417e-11       1.592065453277e-12      -7.385538412697e-15 
   93       3.153833317063e-10       8.491752935882e-14      -2.356035797042e-12       0.000000000000e+00       1.172151980782e-11       1.556598550164e-12      -7.325626608885e-15 
   94       3.191332366677e-10       8.687603296804e-14      -2.438067693457e-12       0.000000000000e+00       1.140272129671e-11       1.522397231616e-12      -7.267518020239e-15 
   95       3.229116367497e-10       8.882721373119e-14      -2.520571558988e-12       0.000000000000e+00       1.109565133018e-11       1.489394073642e-12      -7.210229616421e-15 
   96       3.267180168203e-10       9.076928568566e-14      -2.603490226504e-12       0.000000000000e+00       1.079966355231e-11       1.457504272186e-12      -7.152669791173e-15 
   97       3.305516515664e-10       9.270043444950e-14      -2.686765541861e-12       0.000000000000e+00       1.051395810514e-11       1.426625053780e-12      -7.093635200293e-15 
   98       3.344115971816e-10       9.461881758710e-14      -2.770338385994e-12       0.000000000000e+00       1.023757654175e-11       1.396635086194e-12      -7.031807599618e-15 
   99       3.382969336139e-10       9.652259018678e-14      -2.854148371763e-12       0.000000000000e+00       9.969621261854e-12       1.367422394957e-12      -6.966069789708e-15 
  100       3.422075484291e-10       9.840998493704e-14      -2.938132837716e-12       0.000000000000e+00       9.709960278504e-12       1.338973898592e-12      -6.896511346727e-15 
  101       3.461434490494e-10       1.002792441245e-13      -3.022227752183e-12       0.000000000000e+00       9.458613290054e-12       1.311297519442e-12      -6.823560133302e-15 
  102       3.501045168886e-10       1.021285960964e-13      -3.106368043743e-12       0.000000000000e+00       9.215533727954e-12       1.284394568466e-12      -6.747676597573e-15 
  103       3.540905020768e-10       1.039562559323e-13      -3.190487619375e-12       0.000000000000e+00       8.980606391383e-12       1.258259501415e-12      -6.669354479125e-15 
  104       3.581010181848e-10       1.057604261146e-13      -3.274519382615e-12       0.000000000000e+00       8.753645081887e-12       1.232879675013e-12      -6.589121514938e-15 
  105       3.621355369485e-10       1.075392972004e-13      -3.358395251707e-12       0.000000000000e+00       8.534390238011e-12       1.208235103134e-12      -6.507540145322e-15 
  106       3.661933829935e-10       1.092910484927e-13      -3.442046177760e-12       0.000000000000e+00       8.322506569937e-12       1.184298212986e-12      -6.425208219862e-15 
  107       3.702737285595e-10       1.110138487113e-13      -3.525402162898e-12       0.000000000000e+00       8.117580694115e-12       1.161033601283e-12      -6.342759703356e-15 
