# Matter power spectrum P(k) at redshift z=0
# for k=1.04754e-05 to 1.73709 h/Mpc,
# number of wavenumbers equal to 568
#    1:k (h/Mpc)              2:P (Mpc/h)^3        
       1.047543761149e-05       5.003720092477e+01 
       2.341148583599e-05       1.077653652166e+02 
       3.639336369575e-05       1.641536655118e+02 
       4.945630004349e-05       2.199431769154e+02 
       6.263611091131e-05       2.755355708079e+02 
       7.596952159943e-05       3.312199700896e+02 
       8.949449914210e-05       3.872359836752e+02 
       1.032505996076e-04       4.437991778570e+02 
       1.172793347232e-04       5.011139151612e+02 
       1.316245623497e-04       5.593809245112e+02 
       1.463329053354e-04       6.188023917445e+02 
       1.614542032125e-04       6.795857864479e+02 
       1.770420010110e-04       7.419470224531e+02 
       1.931540790691e-04       8.061132551883e+02 
       2.098530270254e-04       8.723255027473e+02 
       2.272068640338e-04       9.408411851401e+02 
       2.452897054872e-04       1.011936629553e+03 
       2.641824739151e-04       1.085909572579e+03 
       2.839736479750e-04       1.163081630269e+03 
       3.047600382105e-04       1.243800711627e+03 
       3.266475711305e-04       1.328443284702e+03 
       3.497520537285e-04       1.417416388649e+03 
       3.741998784444e-04       1.511159224330e+03 
       4.001286134996e-04       1.610144098308e+03 
       4.276874055933e-04       1.714876443578e+03 
       4.570371017225e-04       1.825893563249e+03 
       4.883499759126e-04       1.943761682122e+03 
       5.218089277035e-04       2.069070834127e+03 
       5.576060067922e-04       2.202427123269e+03 
       5.959401185916e-04       2.344441905668e+03 
       6.370137864374e-04       2.495717548256e+03 
       6.810288960000e-04       2.656829856524e+03 
       7.281814324502e-04       2.828306945158e+03 
       7.786553420844e-04       3.010606055816e+03 
       8.326157991218e-04       3.204088889843e+03 
       8.902023146672e-04       3.408997615631e+03 
       9.515222559393e-04       3.625433712943e+03 
       1.016645411160e-03       3.853341940290e+03 
       1.085600205567e-03       4.092501598873e+03 
       1.158372032482e-03       4.342526502647e+03 
       1.234903925304e-03       4.602874135198e+03 
       1.315099506489e-03       4.872863674911e+03 
       1.398827870490e-03       5.151699928782e+03 
       1.485929848979e-03       5.438502945441e+03 
       1.576225006244e-03       5.732337219734e+03 
       1.669518726038e-03       6.032241750717e+03 
       1.765608855640e-03       6.337254862917e+03 
       1.864291529171e-03       6.646437222401e+03 
       1.965365959970e-03       6.958888511557e+03 
       2.068638140024e-03       7.273760104311e+03 
       2.173923496125e-03       7.590263737396e+03 
       2.281048623380e-03       7.907675977890e+03 
       2.389852251511e-03       8.225340037451e+03 
       2.500185606785e-03       8.542664595348e+03 
       2.611912321994e-03       8.859120999179e+03 
       2.724908026736e-03       9.174240090419e+03 
       2.839059726441e-03       9.487608689771e+03 
       2.954265055010e-03       9.798861602278e+03 
       3.070431464796e-03       1.010768036851e+04 
       3.187475399877e-03       1.041378760227e+04 
       3.305321484305e-03       1.071694042502e+04 
       3.423901746057e-03       1.101693041513e+04 
       3.543154889184e-03       1.131357732735e+04 
       3.663025620740e-03       1.160672463972e+04 
       3.783464034917e-03       1.189624038177e+04 
       3.904425054003e-03       1.218201230299e+04 
       4.025867923976e-03       1.246394585746e+04 
       4.147755761451e-03       1.274196465366e+04 
       4.270055148135e-03       1.301600501047e+04 
       4.392735768688e-03       1.328601732240e+04 
       4.515770087914e-03       1.355196299687e+04 
       4.639133063324e-03       1.381381396948e+04 
       4.762801889374e-03       1.407153533860e+04 
       4.886755769951e-03       1.432512270398e+04 
       5.010975715973e-03       1.457460267192e+04 
       5.135444365283e-03       1.481993826586e+04 
       5.260145822294e-03       1.506111686121e+04 
       5.385065515141e-03       1.529827889690e+04 
       5.510190068300e-03       1.553131553368e+04 
       5.635507188920e-03       1.575954094988e+04 
       5.761005565276e-03       1.598441390224e+04 
       5.886674775953e-03       1.620525506965e+04 
       6.012505208543e-03       1.642203739421e+04 
       6.138487986769e-03       1.663481780417e+04 
       6.264614905079e-03       1.684368456863e+04 
       6.390878369885e-03       1.704856486219e+04 
       6.517271346696e-03       1.724968136944e+04 
       6.643787312494e-03       1.744683177089e+04 
       6.770420212793e-03       1.764047798439e+04 
       6.897164422854e-03       1.782967199984e+04 
       7.024014712623e-03       1.801559138014e+04 
       7.150966214996e-03       1.819768390849e+04 
       7.278014397048e-03       1.837606334410e+04 
       7.405155033936e-03       1.855067824993e+04 
       7.532384185180e-03       1.872156047473e+04 
       7.659698173102e-03       1.888911576724e+04 
       7.787093563178e-03       1.905295106373e+04 
       7.914567146143e-03       1.921338192410e+04 
       8.042115921644e-03       1.937095030283e+04 
       8.169737083318e-03       1.952447812471e+04 
       8.297428005138e-03       1.967460538698e+04 
       8.425186228915e-03       1.982139266116e+04 
       8.553009452841e-03       1.996485458324e+04 
       8.680895520989e-03       2.010502016095e+04 
       8.808842413656e-03       2.024193867302e+04 
       8.936848238505e-03       2.037564848318e+04 
       9.064911222402e-03       2.050615700826e+04 
       9.193029703911e-03       2.063352671075e+04 
       9.321202126370e-03       2.075781906466e+04 
       9.449427031515e-03       2.087906367245e+04 
       9.577703053583e-03       2.099724180706e+04 
       9.706028913878e-03       2.111169116145e+04 
       9.834403415741e-03       2.122467231414e+04 
       9.962825439896e-03       2.133397936682e+04 
       1.009129394015e-02       2.144046124810e+04 
       1.021980793940e-02       2.154394147385e+04 
       1.034836652594e-02       2.164464951895e+04 
       1.047696885005e-02       2.174257463369e+04 
       1.060561412078e-02       2.183773373365e+04 
       1.073430160306e-02       2.193024202313e+04 
       1.086303061489e-02       2.201990238264e+04 
       1.099180052485e-02       2.210695939245e+04 
       1.112061074973e-02       2.219139943522e+04 
       1.124946075230e-02       2.227319836496e+04 
       1.137835003928e-02       2.235246816521e+04 
       1.150727815948e-02       2.242927045695e+04 
       1.163624470198e-02       2.250337576090e+04 
       1.176524929450e-02       2.257510104151e+04 
       1.189429160190e-02       2.264436715472e+04 
       1.202337132471e-02       2.271119680012e+04 
       1.215248819786e-02       2.277566543325e+04 
       1.228164198940e-02       2.283778239237e+04 
       1.241083249940e-02       2.289750429443e+04 
       1.254005955888e-02       2.295501682062e+04 
       1.266932302879e-02       2.301017537202e+04 
       1.279862279915e-02       2.306296553702e+04 
       1.292795878814e-02       2.311365196963e+04 
       1.305733094138e-02       2.316216782393e+04 
       1.318673923116e-02       2.320845510236e+04 
       1.331618365578e-02       2.325261435932e+04 
       1.344566423894e-02       2.329467278497e+04 
       1.357518102915e-02       2.333465025229e+04 
       1.370473409924e-02       2.337254948265e+04 
       1.383432354582e-02       2.340844217499e+04 
       1.396394948893e-02       2.344229546643e+04 
       1.409361207155e-02       2.347417352468e+04 
       1.422331145931e-02       2.350400239229e+04 
       1.435304784010e-02       2.353125071152e+04 
       1.448282142385e-02       2.355815986346e+04 
       1.461263244221e-02       2.358226006287e+04 
       1.474248114832e-02       2.360388838877e+04 
       1.487236781666e-02       2.362502352764e+04 
       1.500229274283e-02       2.364374276477e+04 
       1.513225624343e-02       2.366052989961e+04 
       1.526225865592e-02       2.367471984363e+04 
       1.539230033853e-02       2.368821253234e+04 
       1.552238167021e-02       2.369968508930e+04 
       1.565250305055e-02       2.371061502047e+04 
       1.578266489977e-02       2.371877065792e+04 
       1.591286765872e-02       2.372461241552e+04 
       1.604311178889e-02       2.372958065350e+04 
       1.617339777243e-02       2.373289421583e+04 
       1.630372611225e-02       2.373548620146e+04 
       1.643409733205e-02       2.373492911631e+04 
       1.656451197643e-02       2.373359587930e+04 
       1.669497061103e-02       2.373071672238e+04 
       1.682547382262e-02       2.372601884857e+04 
       1.695602221926e-02       2.372061446211e+04 
       1.708661643050e-02       2.371305267403e+04 
       1.721725710753e-02       2.370481246103e+04 
       1.734794492337e-02       2.369439921859e+04 
       1.747868057314e-02       2.368371551187e+04 
       1.760946477425e-02       2.367082287668e+04 
       1.774029826666e-02       2.365580091009e+04 
       1.787118181317e-02       2.364040125314e+04 
       1.800211619968e-02       2.362312783342e+04 
       1.813310223550e-02       2.360575173788e+04 
       1.826414075368e-02       2.358536111866e+04 
       1.839523261134e-02       2.356495483527e+04 
       1.852637869001e-02       2.354286714706e+04 
       1.865757989600e-02       2.351951159978e+04 
       1.878883716082e-02       2.349611181417e+04 
       1.892015144153e-02       2.347050964277e+04 
       1.905152372120e-02       2.344281579265e+04 
       1.918295500933e-02       2.341483447622e+04 
       1.931444634232e-02       2.338694209990e+04 
       1.944599878392e-02       2.335582958223e+04 
       1.957761342574e-02       2.332571391650e+04 
       1.970929138774e-02       2.329269659342e+04 
       1.984103381880e-02       2.325967960809e+04 
       1.997284189722e-02       2.322565550515e+04 
       2.010471683130e-02       2.319023261182e+04 
       2.023665985995e-02       2.315413370487e+04 
       2.036867225327e-02       2.311588132908e+04 
       2.050075531319e-02       2.307784197924e+04 
       2.063291037410e-02       2.303922663753e+04 
       2.076513880355e-02       2.299902552735e+04 
       2.089744200294e-02       2.295738180077e+04 
       2.102982140817e-02       2.291576063972e+04 
       2.116227849049e-02       2.287248934000e+04 
       2.129481475717e-02       2.282888520384e+04 
       2.142743175229e-02       2.278511363115e+04 
       2.156013105763e-02       2.273954533723e+04 
       2.169291429340e-02       2.269338261211e+04 
       2.182578311919e-02       2.264628843660e+04 
       2.195873923480e-02       2.259848515970e+04 
       2.209178438121e-02       2.254919898520e+04 
       2.222492034146e-02       2.249989271714e+04 
       2.235814894170e-02       2.245051389817e+04 
       2.249147205213e-02       2.239992513130e+04 
       2.262489158810e-02       2.234830852838e+04 
       2.275840951111e-02       2.229549745903e+04 
       2.289202782999e-02       2.224285593651e+04 
       2.302574860198e-02       2.218936608035e+04 
       2.315957393393e-02       2.213573064901e+04 
       2.329350598350e-02       2.208047123945e+04 
       2.342754696043e-02       2.202503744268e+04 
       2.356169912780e-02       2.196904484516e+04 
       2.369596480337e-02       2.191257868739e+04 
       2.383034636095e-02       2.185506582302e+04 
       2.396484623185e-02       2.179748750215e+04 
       2.409946690626e-02       2.173900844466e+04 
       2.423421093483e-02       2.168015482071e+04 
       2.436908093019e-02       2.162083801823e+04 
       2.450407956857e-02       2.156097546966e+04 
       2.463920959145e-02       2.150052815779e+04 
       2.477447380725e-02       2.143966979235e+04 
       2.490987509313e-02       2.137816210203e+04 
       2.504541639681e-02       2.131640351562e+04 
       2.518110073842e-02       2.125415294164e+04 
       2.531693121249e-02       2.119147565098e+04 
       2.545291098993e-02       2.112871714340e+04 
       2.558904332012e-02       2.106518921386e+04 
       2.572533153307e-02       2.100085559447e+04 
       2.586177904162e-02       2.093678429098e+04 
       2.599838934375e-02       2.087177538327e+04 
       2.613516602494e-02       2.080661718193e+04 
       2.627211276066e-02       2.074120692725e+04 
       2.640923331886e-02       2.067571601837e+04 
       2.654653156267e-02       2.060955145252e+04 
       2.668401145305e-02       2.054310602997e+04 
       2.682167705165e-02       2.047638615364e+04 
       2.695953252374e-02       2.040926342069e+04 
       2.709758214117e-02       2.034156597220e+04 
       2.723583028560e-02       2.027395498011e+04 
       2.737428145164e-02       2.020592028024e+04 
       2.751294025030e-02       2.013770581402e+04 
       2.765181141241e-02       2.006942627474e+04 
       2.779089979229e-02       2.000077445326e+04 
       2.793021037147e-02       1.993195457494e+04 
       2.806974826258e-02       1.986240169631e+04 
       2.820951871339e-02       1.979304283341e+04 
       2.834952711102e-02       1.972345483844e+04 
       2.848977898627e-02       1.965362448197e+04 
       2.863028001815e-02       1.958359892159e+04 
       2.877103603859e-02       1.951351807377e+04 
       2.891205303727e-02       1.944311715144e+04 
       2.905333716676e-02       1.937280912769e+04 
       2.919489474775e-02       1.930222080823e+04 
       2.933673227455e-02       1.923110409971e+04 
       2.947885642082e-02       1.916017466962e+04 
       2.962127404546e-02       1.908914840360e+04 
       2.976399219884e-02       1.901782954011e+04 
       2.990701812926e-02       1.894670810511e+04 
       3.005035928959e-02       1.887509147343e+04 
       3.019402334434e-02       1.880348438427e+04 
       3.033801817691e-02       1.873201064765e+04 
       3.048235189722e-02       1.866022056716e+04 
       3.062703284962e-02       1.858817906570e+04 
       3.077206962121e-02       1.851626417106e+04 
       3.091747105043e-02       1.844448314851e+04 
       3.106324623614e-02       1.837242783175e+04 
       3.120940454703e-02       1.830017658714e+04 
       3.135595563150e-02       1.822797406172e+04 
       3.150290942793e-02       1.815572137392e+04 
       3.165027617553e-02       1.808346783639e+04 
       3.179806642555e-02       1.801129060028e+04 
       3.194629105317e-02       1.793886596325e+04 
       3.209496126983e-02       1.786668232511e+04 
       3.224408863620e-02       1.779422355409e+04 
       3.239368507581e-02       1.772168512240e+04 
       3.254376288925e-02       1.764929502149e+04 
       3.269433476919e-02       1.757700459346e+04 
       3.284541381601e-02       1.750461257459e+04 
       3.299701355436e-02       1.743203147836e+04 
       3.314914795043e-02       1.735974057423e+04 
       3.330183143019e-02       1.728741127613e+04 
       3.345507889855e-02       1.721494360252e+04 
       3.360890575947e-02       1.714244318890e+04 
       3.376332793723e-02       1.707008048701e+04 
       3.391836189877e-02       1.699778457201e+04 
       3.407402467722e-02       1.692548737720e+04 
       3.423033389678e-02       1.685321648157e+04 
       3.438730779889e-02       1.678090379842e+04 
       3.454496526995e-02       1.670899115428e+04 
       3.470332587050e-02       1.663658719582e+04 
       3.486240986616e-02       1.656448951617e+04 
       3.502223826025e-02       1.649243887738e+04 
       3.518283282843e-02       1.642046717013e+04 
       3.534421615528e-02       1.634847849890e+04 
       3.550641167309e-02       1.627646209522e+04 
       3.566944370302e-02       1.620457102862e+04 
       3.583333749876e-02       1.613287221894e+04 
       3.599811929284e-02       1.606099309366e+04 
       3.616381634590e-02       1.598933514159e+04 
       3.633045699905e-02       1.591770115556e+04 
       3.649807072959e-02       1.584607531763e+04 
       3.666668821034e-02       1.577442172731e+04 
       3.683634137286e-02       1.570301650985e+04 
       3.700706347491e-02       1.563152556437e+04 
       3.717888917241e-02       1.556017507382e+04 
       3.735185459640e-02       1.548907777702e+04 
       3.752599743522e-02       1.541782517704e+04 
       3.770135702252e-02       1.534642943568e+04 
       3.787797443156e-02       1.527530367746e+04 
       3.805589257620e-02       1.520420772954e+04 
       3.823515631943e-02       1.513317092337e+04 
       3.841581258980e-02       1.506223485564e+04 
       3.859791050668e-02       1.499150804173e+04 
       3.878150151514e-02       1.492040824708e+04 
       3.896663953112e-02       1.484972549459e+04 
       3.915338109819e-02       1.477877859355e+04 
       3.934178555668e-02       1.470826294643e+04 
       3.953191522662e-02       1.463737007268e+04 
       3.972383560568e-02       1.456670723546e+04 
       3.991761558368e-02       1.449606738217e+04 
       4.011332767534e-02       1.442566518441e+04 
       4.031104827310e-02       1.435486817747e+04 
       4.051085792215e-02       1.428434391261e+04 
       4.071284162002e-02       1.421396103016e+04 
       4.091708914337e-02       1.414345802123e+04 
       4.112369540494e-02       1.407268824568e+04 
       4.133276084405e-02       1.400216238940e+04 
       4.154439185452e-02       1.393162416507e+04 
       4.175870125422e-02       1.386127971312e+04 
       4.197580880119e-02       1.379046885906e+04 
       4.219584176203e-02       1.371984000311e+04 
       4.241893553870e-02       1.364940281153e+04 
       4.264523436134e-02       1.357850501730e+04 
       4.287489205507e-02       1.350769101269e+04 
       4.310807289075e-02       1.343713848786e+04 
       4.334495253052e-02       1.336616791900e+04 
       4.358571908095e-02       1.329489114768e+04 
       4.383057426863e-02       1.322382002305e+04 
       4.407973475534e-02       1.315257650441e+04 
       4.433343361287e-02       1.308118429291e+04 
       4.459192198080e-02       1.300980263118e+04 
       4.485547093468e-02       1.293814745583e+04 
       4.512437359685e-02       1.286622479310e+04 
       4.539894752786e-02       1.279437104977e+04 
       4.567953744353e-02       1.272179892243e+04 
       4.596651831102e-02       1.264918864433e+04 
       4.626029888763e-02       1.257642793544e+04 
       4.656132577859e-02       1.250325715519e+04 
       4.687008810536e-02       1.242995203651e+04 
       4.718712289492e-02       1.235604644998e+04 
       4.751302132371e-02       1.228178278908e+04 
       4.784843597894e-02       1.220720355236e+04 
       4.819408933584e-02       1.213192961498e+04 
       4.855078369443e-02       1.205634756216e+04 
       4.891941287592e-02       1.198033556088e+04 
       4.930097605005e-02       1.190324142966e+04 
       4.969659415463e-02       1.182600528727e+04 
       5.010752948298e-02       1.174757602161e+04 
       5.053520916021e-02       1.166836095737e+04 
       5.098125341473e-02       1.158797752819e+04 
       5.144750978740e-02       1.150652079873e+04 
       5.193609472146e-02       1.142435999270e+04 
       5.244944435710e-02       1.134057631924e+04 
       5.299037683187e-02       1.125536152783e+04 
       5.356216897747e-02       1.116833760297e+04 
       5.416865100742e-02       1.107930197909e+04 
       5.481432358624e-02       1.098785117215e+04 
       5.550450247096e-02       1.089358427531e+04 
       5.624549649695e-02       1.079588344564e+04 
       5.704482454524e-02       1.069491213205e+04 
       5.791147524545e-02       1.058836695535e+04 
       5.885620750905e-02       1.047663167653e+04 
       5.989187677762e-02       1.035734738778e+04 
       6.103374458241e-02       1.022884735565e+04 
       6.229967770002e-02       1.008912503290e+04 
