# dimensionless total lensed [l(l+1)/2pi] C_l's
# for l=2 to 2500, i.e. number of multipoles equal to 2499
#
# -> if you prefer output in CAMB/HealPix/LensPix units/order, set 'format' to 'camb' in input file
# -> if you don't want to see such a header, set 'headers' to 'no' in input file
# -> for CMB lensing (phi), these are C_l^phi-phi for the lensing potential.
#    Remember the conversion factors:
#    C_l^dd (deflection) = l(l+1) C_l^phi-phi
#    C_l^gg (shear/convergence) = 1/4 (l(l+1))^2 C_l^phi-phi
#
# 1:l     2:TT                     3:EE                     4:TE                     5:BB                     6:phiphi                 7:TPhi                   8:Ephi               
    2       1.381677050822e-10       4.179731475795e-15       3.519337565412e-13       2.310155800030e-19       8.236363926627e-09       4.535747353113e-10      -1.842359496087e-12 
    3       1.306696083236e-10       5.354811582707e-15       3.955014709516e-13       4.621216402815e-19       5.068758635956e-09       3.217368791896e-10      -1.394919934829e-12 
    4       1.236017585889e-10       4.629636121584e-15       3.698083331366e-13       7.704021827097e-19       3.524741558530e-09       2.436997654541e-10      -9.127420161435e-13 
    5       1.183100511366e-10       3.087195279835e-15       3.148766328369e-13       1.155973384472e-18       2.631980172695e-09       1.925368438797e-10      -5.069339224099e-13 
    6       1.146813057963e-10       1.726131718560e-15       2.535645458885e-13       1.618976719863e-18       2.056887115111e-09       1.566785810658e-10      -2.081012271182e-13 
    7       1.123168394529e-10       9.336983972550e-16       1.990688890422e-13       2.159576610804e-18       1.660292102491e-09       1.303590416424e-10      -1.764530545661e-14 
    8       1.109367290792e-10       6.038794315428e-16       1.571589590144e-13       2.777957749907e-18       1.372926091445e-09       1.103958099998e-10       7.941439476077e-14 
    9       1.102928622016e-10       4.859034873351e-16       1.291081542782e-13       3.474322166125e-18       1.156601648260e-09       9.490316051317e-11       1.064379291369e-13 
   10       1.101545026259e-10       4.150002699982e-16       1.135880808781e-13       4.248886108726e-18       9.888508526637e-10       8.262927996935e-11       8.927929284538e-14 
   11       1.104629359239e-10       3.497496609883e-16       1.079366310035e-13       5.101876828634e-18       8.333804250285e-10       7.300895379717e-11       5.203133824183e-14 
   12       1.110664508283e-10       3.057950707348e-16       1.090961836356e-13       6.033529336998e-18       7.283489522055e-10       6.455582463351e-11       1.227602321415e-14 
   13       1.119147712157e-10       2.941345986132e-16       1.143825217659e-13       7.044083219260e-18       6.421078028517e-10       5.769176879647e-11      -1.798981358990e-14 
   14       1.129605731489e-10       3.068005339476e-16       1.217752778017e-13       8.133779578966e-18       5.703409112193e-10       5.171514220765e-11      -3.451220973815e-14 
   15       1.141904414689e-10       3.320499866011e-16       1.299848808978e-13       9.302858179336e-18       5.099194087758e-10       4.668827408725e-11      -3.750060166944e-14 
   16       1.155291035609e-10       3.673598116845e-16       1.383483145845e-13       1.055155484240e-17       4.585371708952e-10       4.235494799020e-11      -3.091267946414e-14 
   17       1.170041621093e-10       4.182591010314e-16       1.466478300338e-13       1.188009915561e-17       4.144517806380e-10       3.857276418891e-11      -1.994052897221e-14 
   18       1.185524597847e-10       4.901783281597e-16       1.551403584076e-13       1.328871239761e-17       3.761811638697e-10       3.527412130078e-11      -9.473591441167e-15 
   19       1.201853051616e-10       5.834439302600e-16       1.640480594115e-13       1.477760659827e-17       3.431210206770e-10       3.241165752596e-11      -2.117146180844e-15 
   20       1.218954527672e-10       6.960546503104e-16       1.735117728290e-13       1.634698194439e-17       3.139989528161e-10       2.986969412827e-11       4.180616246608e-16 
   21       1.236840389934e-10       8.273743501932e-16       1.834832577621e-13       1.799702793076e-17       2.883572990717e-10       2.760235352828e-11      -1.297286810482e-15 
   22       1.255248409705e-10       9.769158234853e-16       1.937750860200e-13       1.972792066200e-17       2.655832400545e-10       2.555341069150e-11      -5.509892253011e-15 
   23       1.274243549810e-10       1.144848507210e-15       2.040648677492e-13       2.153982563792e-17       2.453721943606e-10       2.371514117850e-11      -1.047329290100e-14 
   24       1.293770418383e-10       1.331388554493e-15       2.139404020556e-13       2.343289459603e-17       2.272617214332e-10       2.207157337861e-11      -1.433130025020e-14 
   25       1.313776623191e-10       1.536754054854e-15       2.230927387695e-13       2.540726885399e-17       2.110064499663e-10       2.060000371457e-11      -1.626977606552e-14 
   26       1.334084457090e-10       1.761318838786e-15       2.312566104138e-13       2.746307716186e-17       1.962889193132e-10       1.926275428547e-11      -1.595589392280e-14 
   27       1.354789694069e-10       2.006713333751e-15       2.383607366471e-13       2.960044331545e-17       1.830328208486e-10       1.805040412912e-11      -1.390097307912e-14 
   28       1.375919270710e-10       2.275191604510e-15       2.444177781101e-13       3.181947907840e-17       1.710772476449e-10       1.694761889959e-11      -1.111004681950e-14 
   29       1.397364022976e-10       2.569031669148e-15       2.494713227465e-13       3.412028439150e-17       1.601316556291e-10       1.592811494055e-11      -8.704402193738e-15 
   30       1.419189442183e-10       2.889325124246e-15       2.535692824180e-13       3.650295990605e-17       1.501358325030e-10       1.499091958623e-11      -7.073227796084e-15 
   31       1.441411870197e-10       3.236698417260e-15       2.567845053077e-13       3.896759833221e-17       1.410158762621e-10       1.413619090577e-11      -6.396900143016e-15 
   32       1.463950052246e-10       3.611724346892e-15       2.591839141269e-13       4.151428366893e-17       1.326278106054e-10       1.335703243108e-11      -6.763045301580e-15 
   33       1.486798856961e-10       4.015340473906e-15       2.606880573570e-13       4.414310156893e-17       1.249259818473e-10       1.264684747788e-11      -7.819358751293e-15 
   34       1.509895142987e-10       4.448574667126e-15       2.611584303276e-13       4.685413230763e-17       1.178421237561e-10       1.199324464809e-11      -8.978189568848e-15 
   35       1.533126658610e-10       4.912417274543e-15       2.604473638206e-13       4.964745017422e-17       1.112707463473e-10       1.138035176945e-11      -9.648734330271e-15 
   36       1.556563684572e-10       5.407763895838e-15       2.584511632292e-13       5.252313136927e-17       1.051948119951e-10       1.080616779659e-11      -9.767757248011e-15 
   37       1.580292874701e-10       5.935446974366e-15       2.550735919546e-13       5.548124874584e-17       9.959532492881e-11       1.027040996106e-11      -9.449016666899e-15 
   38       1.604347594782e-10       6.496245843443e-15       2.502111033598e-13       5.852186974204e-17       9.441333868621e-11       9.769518138304e-12      -8.846474411130e-15 
   39       1.628718427054e-10       7.090881707584e-15       2.437779761159e-13       6.164505687494e-17       8.957122321691e-11       9.298385188628e-12      -8.133662843494e-15 
   40       1.653404819297e-10       7.720010267733e-15       2.357933526059e-13       6.485086937844e-17       8.505415554271e-11       8.857019298041e-12      -7.426113515088e-15 
   41       1.678370153564e-10       8.384219876842e-15       2.263229697794e-13       6.813936215597e-17       8.085024522732e-11       8.445629236552e-12      -6.837439645438e-15 
   42       1.703521107733e-10       9.084028304408e-15       2.154574391543e-13       7.151058540859e-17       7.692621737199e-11       8.062621595083e-12      -6.501800711889e-15 
   43       1.728752676688e-10       9.819928173040e-15       2.032785382408e-13       7.496458251938e-17       7.323971972866e-11       7.705338665241e-12      -6.532453972424e-15 
   44       1.754112448557e-10       1.059254993944e-14       1.897421552345e-13       7.850138278727e-17       6.978508664606e-11       7.372922638962e-12      -6.879203266365e-15 
   45       1.779678700707e-10       1.140254280022e-14       1.747612435815e-13       8.212100652106e-17       6.655881556240e-11       7.064077209002e-12      -7.428467315335e-15 
   46       1.805512578439e-10       1.225052861777e-14       1.582370005438e-13       8.582346693386e-17       6.354582728819e-11       6.776150065110e-12      -8.040541787752e-15 
   47       1.831656030621e-10       1.313710094668e-14       1.400580664696e-13       8.960877006117e-17       6.071856333597e-11       6.505031237524e-12      -8.548069276101e-15 
   48       1.858131446238e-10       1.406275754568e-14       1.201224714938e-13       9.347691203705e-17       5.804547213242e-11       6.246340703594e-12      -8.801781444279e-15 
   49       1.884945259760e-10       1.502767768908e-14       9.841265957476e-14       9.742787020559e-17       5.552140262267e-11       5.999624275029e-12      -8.826542905130e-15 
   50       1.912081815273e-10       1.603188040948e-14       7.494023707206e-14       1.014616093632e-16       5.314422736202e-11       5.765165822603e-12      -8.706665450454e-15 
   51       1.939499825385e-10       1.707528127189e-14       4.972542275967e-14       1.055780839704e-16       5.090578844353e-11       5.542766284921e-12      -8.543336458847e-15 
   52       1.967130393643e-10       1.815768800658e-14       2.279740767984e-14       1.097772379354e-16       4.879147385233e-11       5.331707790647e-12      -8.455500718384e-15 
   53       1.994903761005e-10       1.927890536786e-14      -5.819074402551e-15       1.140590062306e-16       4.678480519168e-11       5.131065651661e-12      -8.549507768823e-15 
   54       2.022842171845e-10       2.043909141883e-14      -3.614891818178e-14       1.184233207305e-16       4.488356101951e-11       4.940821115716e-12      -8.816861005748e-15 
   55       2.050987441135e-10       2.163848525134e-14      -6.823246390272e-14       1.228701054974e-16       4.308706115880e-11       4.760972220351e-12      -9.211712379878e-15 
   56       2.079373564802e-10       2.287730598712e-14      -1.021129380806e-13       1.273992749426e-16       4.139130951135e-11       4.591190155091e-12      -9.679377240211e-15 
   57       2.108025946509e-10       2.415575299026e-14      -1.378366718191e-13       1.320107336868e-16       3.978878053246e-11       4.430797969463e-12      -1.015590653488e-14 
   58       2.136960624435e-10       2.547400607979e-14      -1.754533191289e-13       1.367043764199e-16       3.826820570575e-11       4.278749281006e-12      -1.056765901200e-14 
   59       2.166187388964e-10       2.683210836680e-14      -2.150016807467e-13       1.414800966881e-16       3.681767549318e-11       4.133912947079e-12      -1.084878960656e-14 
   60       2.195721737356e-10       2.822958251013e-14      -2.564628353655e-13       1.463378159538e-16       3.543527134792e-11       3.996052637502e-12      -1.099942882593e-14 
   61       2.225574333683e-10       2.966572556111e-14      -2.997964905836e-13       1.512774610494e-16       3.412052978398e-11       3.865037521572e-12      -1.104028228726e-14 
   62       2.255746733792e-10       3.113971481394e-14      -3.449541562717e-13       1.562989560032e-16       3.287124492305e-11       3.740545608664e-12      -1.099607835094e-14 
   63       2.286230743983e-10       3.265060403945e-14      -3.918788749420e-13       1.614022222023e-16       3.168336735830e-11       3.622052827895e-12      -1.089574764979e-14 
   64       2.317007779680e-10       3.419731971879e-14      -4.405049521173e-13       1.665871785557e-16       3.055090301807e-11       3.508822107791e-12      -1.077260261824e-14 
   65       2.348058031845e-10       3.577878121812e-14      -4.907721864639e-13       1.718537544586e-16       2.946756726495e-11       3.400104930165e-12      -1.065701817318e-14 
   66       2.379391663071e-10       3.739429935384e-14      -5.426726686246e-13       1.772019315114e-16       2.843238152331e-11       3.295820133770e-12      -1.055226882757e-14 
   67       2.411023091376e-10       3.904325575344e-14      -5.962134408632e-13       1.826317109536e-16       2.744508463238e-11       3.195999773177e-12      -1.045388010060e-14 
   68       2.442961405319e-10       4.072498606885e-14      -6.514030052710e-13       1.881431021524e-16       2.650443113174e-11       3.100584445732e-12      -1.035664615755e-14 
   69       2.475209997019e-10       4.243877967710e-14      -7.082514597244e-13       1.937361231234e-16       2.560813922262e-11       3.009418314560e-12      -1.025459958100e-14 
   70       2.507766195176e-10       4.418387938089e-14      -7.667706338414e-13       1.994108010522e-16       2.475283872904e-11       2.922244131566e-12      -1.014098114203e-14 
   71       2.540620898080e-10       4.595948110917e-14      -8.269742249386e-13       2.051671728145e-16       2.393401905910e-11       2.838698260431e-12      -1.000820957144e-14 
   72       2.573764422966e-10       4.776469485262e-14      -8.888686890499e-13       2.110052920633e-16       2.314718940678e-11       2.758408176567e-12      -9.850185059989e-15 
   73       2.607206169421e-10       4.959841945435e-14      -9.524235876394e-13       2.169252509053e-16       2.239173282178e-11       2.681317693608e-12      -9.669778823330e-15 
   74       2.640958084743e-10       5.145944313229e-14      -1.017595768136e-12       2.229271633463e-16       2.166770133034e-11       2.607415460565e-12      -9.472733223939e-15 
   75       2.675028560808e-10       5.334647895053e-14      -1.084338030702e-12       2.290111597528e-16       2.097464529552e-11       2.536635423716e-12      -9.265478082261e-15 
   76       2.709422209018e-10       5.525816363487e-14      -1.152599053121e-12       2.351773875230e-16       2.031158905508e-11       2.468854189263e-12      -9.055153729394e-15 
   77       2.744139635241e-10       5.719305638839e-14      -1.222323315677e-12       2.414260117579e-16       1.967700655946e-11       2.403888385988e-12      -8.849634059777e-15 
   78       2.779177214754e-10       5.914963770697e-14      -1.293451026049e-12       2.477572159318e-16       1.906879700975e-11       2.341492027914e-12      -8.657549583876e-15 
   79       2.814526867185e-10       6.112630819483e-14      -1.365918044186e-12       2.541712025630e-16       1.848426049563e-11       2.281353876957e-12      -8.488310480869e-15 
   80       2.850180480881e-10       6.312144122530e-14      -1.439661417803e-12       2.606681873692e-16       1.792076861231e-11       2.223175416687e-12      -8.349886626574e-15 
   81       2.886144565997e-10       6.513355406081e-14      -1.514637261186e-12       2.672483790881e-16       1.737796403144e-11       2.166926170496e-12      -8.241652966904e-15 
   82       2.922427747220e-10       6.716116442753e-14      -1.590805858741e-12       2.739119973605e-16       1.685590023606e-11       2.112628116606e-12      -8.160337894293e-15 
   83       2.959036203553e-10       6.920273912528e-14      -1.668126358511e-12       2.806592794760e-16       1.635436915500e-11       2.060277888340e-12      -8.102137713282e-15 
   84       2.995973529361e-10       7.125669384016e-14      -1.746556800960e-12       2.874904809234e-16       1.587288967080e-11       2.009845629578e-12      -8.062698155710e-15 
   85       3.033240595414e-10       7.332139295732e-14      -1.826054147763e-12       2.944058759408e-16       1.541069612768e-11       1.961273850212e-12      -8.037095895902e-15 
   86       3.070835409928e-10       7.539514937356e-14      -1.906574310584e-12       3.014057580657e-16       1.496672683941e-11       1.914476281601e-12      -8.019820065862e-15 
   87       3.108752979612e-10       7.747622431006e-14      -1.988072179870e-12       3.084904406848e-16       1.453961259731e-11       1.869336732027e-12      -8.004753770462e-15 
   88       3.146985170709e-10       7.956282712503e-14      -2.070501653629e-12       3.156602575849e-16       1.412766517813e-11       1.825707942150e-12      -7.985155602632e-15 
   89       3.185523822751e-10       8.165313986938e-14      -2.153814161023e-12       3.229155581240e-16       1.372927937997e-11       1.783447865332e-12      -7.955106609984e-15 
   90       3.224370952504e-10       8.374539577642e-14      -2.237953904970e-12       3.302566906802e-16       1.334423645616e-11       1.742537525758e-12      -7.914151616233e-15 
   91       3.263529902120e-10       8.583781279680e-14      -2.322861922824e-12       3.376840176083e-16       1.297258492585e-11       1.702979625708e-12      -7.863355302451e-15 
   92       3.303002139955e-10       8.792857013239e-14      -2.408477531282e-12       3.451979208500e-16       1.261424002494e-11       1.664762190803e-12      -7.803904990412e-15 
   93       3.342787170338e-10       9.001580841968e-14      -2.494738332622e-12       3.527988024029e-16       1.226897840918e-11       1.627857986127e-12      -7.737114112121e-15 
   94       3.382882443347e-10       9.209762991312e-14      -2.581580220939e-12       3.604870847907e-16       1.193643285727e-11       1.592223932362e-12      -7.664425679327e-15 
   95       3.423283264582e-10       9.417209866849e-14      -2.668937388377e-12       3.682632115324e-16       1.161608697401e-11       1.557800521908e-12      -7.587415753046e-15 
   96       3.463982704937e-10       9.623724072626e-14      -2.756742331368e-12       3.761276476119e-16       1.130726989337e-11       1.524511235016e-12      -7.507796913076e-15 
   97       3.504971510373e-10       9.829104429498e-14      -2.844925856865e-12       3.840808799478e-16       1.100915098161e-11       1.492261955913e-12      -7.427421727517e-15 
   98       3.546238011691e-10       1.003314599346e-13      -2.933417088582e-12       3.921234178626e-16       1.072073454039e-11       1.460940388930e-12      -7.348286222294e-15 
   99       3.587771017762e-10       1.023564477767e-13      -3.022144864298e-12       4.002557942538e-16       1.044108804357e-11       1.430442681282e-12      -7.272129668449e-15 
  100       3.629569157842e-10       1.043641264208e-13      -3.111042140141e-12       4.084785682815e-16       1.017007518418e-11       1.400758856179e-12      -7.199161763434e-15 
  101       3.671632701054e-10       1.063526455665e-13      -3.200042224620e-12       4.167923239355e-16       9.907717300244e-12       1.371898452218e-12      -7.129160772633e-15 
  102       3.713960637606e-10       1.083201416025e-13      -3.289077466011e-12       4.251976698399e-16       9.653966669056e-12       1.343864145399e-12      -7.061859722254e-15 
  103       3.756550624729e-10       1.102647383596e-13      -3.378079275454e-12       4.336952397311e-16       9.408704041027e-12       1.316651495035e-12      -6.996944975721e-15 
  104       3.799398932612e-10       1.121845478646e-13      -3.466978150050e-12       4.422856929359e-16       9.171736173494e-12       1.290248689656e-12      -6.934054810083e-15 
  105       3.842500390337e-10       1.140776710937e-13      -3.555703695957e-12       4.509697148497e-16       8.942793364543e-12       1.264636292913e-12      -6.872777992411e-15 
  106       3.885848331817e-10       1.159421987260e-13      -3.644184651489e-12       4.597480174143e-16       8.721526986831e-12       1.239786989486e-12      -6.812652356200e-15 
  107       3.929434541732e-10       1.177762118967e-13      -3.732348910212e-12       4.686213395961e-16       8.507507021403e-12       1.215665330984e-12      -6.753163377769e-15 
